#K-Path(1/A) Energy-Level(eV)
# NKPTS & NBANDS: 120 140
# Band-Index    1
   0.00000    -12.891919
   0.00608    -12.891816
   0.01217    -12.891508
   0.01825    -12.890996
   0.02434    -12.890279
   0.03042    -12.889359
   0.03651    -12.888234
   0.04259    -12.886907
   0.04868    -12.885376
   0.05476    -12.883643
   0.06085    -12.881707
   0.06693    -12.879571
   0.07302    -12.877233
   0.07910    -12.874697
   0.08519    -12.871960
   0.09127    -12.869025
   0.09736    -12.865894
   0.10344    -12.862566
   0.10953    -12.859044
   0.11561    -12.855329
   0.12169    -12.851422
   0.12778    -12.847325
   0.13386    -12.843040
   0.13995    -12.838569
   0.14603    -12.833912
   0.15212    -12.829075
   0.15820    -12.824056
   0.16429    -12.818861
   0.17037    -12.813492
   0.17646    -12.808161
   0.17646    -12.808161
   0.20560    -12.805500
   0.23474    -12.797526
   0.26388    -12.784274
   0.29302    -12.765793
   0.32217    -12.742161
   0.35131    -12.713473
   0.38045    -12.679856
   0.40959    -12.641449
   0.43873    -12.598431
   0.46788    -12.551004
   0.49702    -12.499402
   0.52616    -12.443888
   0.55530    -12.384774
   0.58444    -12.322405
   0.61358    -12.257171
   0.64273    -12.189518
   0.67187    -12.119945
   0.70101    -12.049022
   0.73015    -11.977389
   0.75929    -11.905775
   0.78844    -11.835025
   0.81758    -11.766127
   0.84672    -11.700292
   0.87586    -11.639095
   0.90500    -11.584733
   0.93414    -11.540244
   0.96329    -11.508724
   0.99243    -11.490970
   1.02157    -11.485386
   1.02157    -11.485386
   1.02765    -11.485386
   1.03374    -11.485387
   1.03982    -11.485389
   1.04591    -11.485392
   1.05199    -11.485394
   1.05808    -11.485399
   1.06416    -11.485405
   1.07025    -11.485409
   1.07633    -11.485414
   1.08242    -11.485420
   1.08850    -11.485426
   1.09459    -11.485433
   1.10067    -11.485439
   1.10676    -11.485448
   1.11284    -11.485456
   1.11893    -11.485464
   1.12501    -11.485470
   1.13110    -11.485476
   1.13718    -11.485483
   1.14326    -11.485489
   1.14935    -11.485496
   1.15543    -11.485503
   1.16152    -11.485509
   1.16760    -11.485515
   1.17369    -11.485519
   1.17977    -11.485522
   1.18586    -11.485524
   1.19194    -11.485525
   1.19803    -11.485526
   1.19803    -11.485526
   1.22717    -11.492177
   1.25631    -11.516951
   1.28545    -11.560227
   1.31459    -11.615903
   1.34374    -11.679140
   1.37288    -11.747271
   1.40202    -11.818664
   1.43116    -11.892136
   1.46030    -11.966722
   1.48945    -12.041598
   1.51859    -12.116035
   1.54773    -12.189383
   1.57687    -12.261064
   1.60601    -12.330560
   1.63515    -12.397409
   1.66430    -12.461198
   1.69344    -12.521553
   1.72258    -12.578153
   1.75172    -12.630709
   1.78086    -12.678964
   1.81001    -12.722700
   1.83915    -12.761721
   1.86829    -12.795858
   1.89743    -12.824975
   1.92657    -12.848954
   1.95571    -12.867698
   1.98486    -12.881137
   2.01400    -12.889221
   2.04314    -12.891919
 
# Band-Index    2
   2.04314    -12.631266
   2.01400    -12.628638
   1.98486    -12.620769
   1.95571    -12.607691
   1.92657    -12.589457
   1.89743    -12.566153
   1.86829    -12.537882
   1.83915    -12.504771
   1.81001    -12.466975
   1.78086    -12.424683
   1.75172    -12.378110
   1.72258    -12.327511
   1.69344    -12.273175
   1.66430    -12.215435
   1.63515    -12.154674
   1.60601    -12.091321
   1.57687    -12.025873
   1.54773    -11.958887
   1.51859    -11.890997
   1.48945    -11.822920
   1.46030    -11.755455
   1.43116    -11.689527
   1.40202    -11.642258
   1.37288    -11.604475
   1.34374    -11.571689
   1.31459    -11.543829
   1.28545    -11.520829
   1.25631    -11.502826
   1.22717    -11.490442
   1.19803    -11.485403
   1.19803    -11.485403
   1.19194    -11.485402
   1.18586    -11.485401
   1.17977    -11.485399
   1.17369    -11.485397
   1.16760    -11.485392
   1.16152    -11.485386
   1.15543    -11.485380
   1.14935    -11.485373
   1.14326    -11.485366
   1.13718    -11.485360
   1.13110    -11.485354
   1.12501    -11.485347
   1.11893    -11.485341
   1.11284    -11.485334
   1.10676    -11.485325
   1.10067    -11.485317
   1.09459    -11.485311
   1.08850    -11.485303
   1.08242    -11.485297
   1.07633    -11.485292
   1.07025    -11.485287
   1.06416    -11.485283
   1.05808    -11.485277
   1.05199    -11.485272
   1.04591    -11.485269
   1.03982    -11.485267
   1.03374    -11.485265
   1.02765    -11.485263
   1.02157    -11.485264
   1.02157    -11.485264
   0.99243    -11.490840
   0.96329    -11.508583
   0.93414    -11.540090
   0.90500    -11.584549
   0.87586    -11.638874
   0.84672    -11.700039
   0.81758    -11.765848
   0.78844    -11.834726
   0.75929    -11.905460
   0.73015    -11.977060
   0.70101    -12.048681
   0.67187    -12.119593
   0.64273    -12.189156
   0.61358    -12.256800
   0.58444    -12.322026
   0.55530    -12.384388
   0.52616    -12.443496
   0.49702    -12.499003
   0.46788    -12.550599
   0.43873    -12.598022
   0.40959    -12.641035
   0.38045    -12.679438
   0.35131    -12.713052
   0.32217    -12.741737
   0.29302    -12.765367
   0.26388    -12.783845
   0.23474    -12.797096
   0.20560    -12.805070
   0.17646    -12.807730
   0.17646    -12.807730
   0.17037    -12.802230
   0.16429    -12.796357
   0.15820    -12.790322
   0.15212    -12.784129
   0.14603    -12.777785
   0.13995    -12.771297
   0.13386    -12.764669
   0.12778    -12.757907
   0.12169    -12.751021
   0.11561    -12.744019
   0.10953    -12.736912
   0.10344    -12.729711
   0.09736    -12.722433
   0.09127    -12.715095
   0.08519    -12.707715
   0.07910    -12.700317
   0.07302    -12.692931
   0.06693    -12.685596
   0.06085    -12.678353
   0.05476    -12.671260
   0.04868    -12.664382
   0.04259    -12.657809
   0.03651    -12.651642
   0.03042    -12.646008
   0.02434    -12.641053
   0.01825    -12.636945
   0.01217    -12.633850
   0.00608    -12.631922
   0.00000    -12.631266
 
# Band-Index    3
   0.00000    -12.475340
   0.00608    -12.474563
   0.01217    -12.472271
   0.01825    -12.468572
   0.02434    -12.463617
   0.03042    -12.457578
   0.03651    -12.450621
   0.04259    -12.442890
   0.04868    -12.434518
   0.05476    -12.425610
   0.06085    -12.416252
   0.06693    -12.406517
   0.07302    -12.396461
   0.07910    -12.386132
   0.08519    -12.375570
   0.09127    -12.364807
   0.09736    -12.353872
   0.10344    -12.342791
   0.10953    -12.331588
   0.11561    -12.320279
   0.12169    -12.308885
   0.12778    -12.297417
   0.13386    -12.285898
   0.13995    -12.274343
   0.14603    -12.262765
   0.15212    -12.251181
   0.15820    -12.239605
   0.16429    -12.228054
   0.17037    -12.216544
   0.17646    -12.205191
   0.17646    -12.205191
   0.20560    -12.202926
   0.23474    -12.196146
   0.26388    -12.184893
   0.29302    -12.169235
   0.32217    -12.149273
   0.35131    -12.125137
   0.38045    -12.096996
   0.40959    -12.065046
   0.43873    -12.029529
   0.46788    -11.990730
   0.49702    -11.948984
   0.52616    -11.904697
   0.55530    -11.858357
   0.58444    -11.810589
   0.61358    -11.762252
   0.64273    -11.714731
   0.67187    -11.670269
   0.70101    -11.631382
   0.73015    -11.598011
   0.75929    -11.568218
   0.78844    -11.540794
   0.81758    -11.515292
   0.84672    -11.491493
   0.87586    -11.469036
   0.90500    -11.447125
   0.93414    -11.424260
   0.96329    -11.399117
   0.99243    -11.373100
   1.02157    -11.353848
   1.02157    -11.353848
   1.02765    -11.353853
   1.03374    -11.353870
   1.03982    -11.353898
   1.04591    -11.353938
   1.05199    -11.353987
   1.05808    -11.354047
   1.06416    -11.354114
   1.07025    -11.354188
   1.07633    -11.354269
   1.08242    -11.354354
   1.08850    -11.354444
   1.09459    -11.354535
   1.10067    -11.354626
   1.10676    -11.354721
   1.11284    -11.354815
   1.11893    -11.354906
   1.12501    -11.354995
   1.13110    -11.355078
   1.13718    -11.355158
   1.14326    -11.355232
   1.14935    -11.355301
   1.15543    -11.355364
   1.16152    -11.355420
   1.16760    -11.355466
   1.17369    -11.355507
   1.17977    -11.355537
   1.18586    -11.355561
   1.19194    -11.355574
   1.19803    -11.355580
   1.19803    -11.355580
   1.22717    -11.382614
   1.25631    -11.403509
   1.28545    -11.420029
   1.31459    -11.462055
   1.34374    -11.511164
   1.37288    -11.566225
   1.40202    -11.626053
   1.43116    -11.684871
   1.46030    -11.731944
   1.48945    -11.782578
   1.51859    -11.835779
   1.54773    -11.890502
   1.57687    -11.945782
   1.60601    -12.000775
   1.63515    -12.054752
   1.66430    -12.107099
   1.69344    -12.157283
   1.72258    -12.204845
   1.75172    -12.249400
   1.78086    -12.290610
   1.81001    -12.328185
   1.83915    -12.361879
   1.86829    -12.391481
   1.89743    -12.416811
   1.92657    -12.437732
   1.95571    -12.454120
   1.98486    -12.465888
   2.01400    -12.472974
   2.04314    -12.475340
 
# Band-Index    4
   2.04314    -12.002733
   2.01400    -12.001375
   1.98486    -11.997315
   1.95571    -11.990578
   1.92657    -11.981203
   1.89743    -11.969249
   1.86829    -11.954791
   1.83915    -11.937909
   1.81001    -11.918708
   1.78086    -11.897307
   1.75172    -11.873837
   1.72258    -11.848433
   1.69344    -11.821256
   1.66430    -11.792446
   1.63515    -11.762151
   1.60601    -11.730510
   1.57687    -11.697635
   1.54773    -11.663596
   1.51859    -11.628411
   1.48945    -11.592046
   1.46030    -11.554458
   1.43116    -11.515705
   1.40202    -11.476130
   1.37288    -11.440849
   1.34374    -11.431780
   1.31459    -11.423904
   1.28545    -11.415684
   1.25631    -11.385970
   1.22717    -11.360486
   1.19803    -11.355229
   1.19803    -11.355229
   1.19194    -11.355224
   1.18586    -11.355210
   1.17977    -11.355187
   1.17369    -11.355157
   1.16760    -11.355117
   1.16152    -11.355071
   1.15543    -11.355016
   1.14935    -11.354953
   1.14326    -11.354885
   1.13718    -11.354812
   1.13110    -11.354733
   1.12501    -11.354650
   1.11893    -11.354563
   1.11284    -11.354473
   1.10676    -11.354379
   1.10067    -11.354286
   1.09459    -11.354196
   1.08850    -11.354107
   1.08242    -11.354018
   1.07633    -11.353934
   1.07025    -11.353854
   1.06416    -11.353781
   1.05808    -11.353715
   1.05199    -11.353656
   1.04591    -11.353608
   1.03982    -11.353569
   1.03374    -11.353541
   1.02765    -11.353524
   1.02157    -11.353520
   1.02157    -11.353520
   0.99243    -11.372528
   0.96329    -11.398584
   0.93414    -11.423807
   0.90500    -11.446758
   0.87586    -11.468734
   0.84672    -11.491232
   0.81758    -11.515056
   0.78844    -11.540573
   0.75929    -11.568007
   0.73015    -11.597806
   0.70101    -11.631187
   0.67187    -11.670122
   0.64273    -11.714662
   0.61358    -11.762229
   0.58444    -11.810536
   0.55530    -11.858273
   0.52616    -11.904588
   0.49702    -11.948857
   0.46788    -11.990588
   0.43873    -12.029374
   0.40959    -12.064881
   0.38045    -12.096822
   0.35131    -12.124955
   0.32217    -12.149085
   0.29302    -12.169042
   0.26388    -12.184696
   0.23474    -12.195947
   0.20560    -12.202725
   0.17646    -12.204990
   0.17646    -12.204990
   0.17037    -12.193714
   0.16429    -12.182432
   0.15820    -12.171262
   0.15212    -12.160228
   0.14603    -12.149350
   0.13995    -12.138653
   0.13386    -12.128160
   0.12778    -12.117896
   0.12169    -12.107890
   0.11561    -12.098166
   0.10953    -12.088754
   0.10344    -12.079682
   0.09736    -12.070978
   0.09127    -12.062667
   0.08519    -12.054777
   0.07910    -12.047332
   0.07302    -12.040351
   0.06693    -12.033860
   0.06085    -12.027874
   0.05476    -12.022414
   0.04868    -12.017490
   0.04259    -12.013114
   0.03651    -12.009301
   0.03042    -12.006059
   0.02434    -12.003403
   0.01825    -12.002212
   0.01217    -12.002494
   0.00608    -12.002674
   0.00000    -12.002733
 
# Band-Index    5
   0.00000    -11.998612
   0.00608    -11.998909
   0.01217    -11.999804
   0.01825    -12.001275
   0.02434    -12.001742
   0.03042    -12.001210
   0.03651    -12.000546
   0.04259    -11.999761
   0.04868    -11.998854
   0.05476    -11.997827
   0.06085    -11.996677
   0.06693    -11.995405
   0.07302    -11.994009
   0.07910    -11.992492
   0.08519    -11.990851
   0.09127    -11.989087
   0.09736    -11.987196
   0.10344    -11.985181
   0.10953    -11.983040
   0.11561    -11.980772
   0.12169    -11.978375
   0.12778    -11.975847
   0.13386    -11.973187
   0.13995    -11.970390
   0.14603    -11.967458
   0.15212    -11.964386
   0.15820    -11.961170
   0.16429    -11.957808
   0.17037    -11.954295
   0.17646    -11.950747
   0.17646    -11.950747
   0.20560    -11.949444
   0.23474    -11.945538
   0.26388    -11.939057
   0.29302    -11.930050
   0.32217    -11.918576
   0.35131    -11.904717
   0.38045    -11.888577
   0.40959    -11.870269
   0.43873    -11.849922
   0.46788    -11.827689
   0.49702    -11.803728
   0.52616    -11.778195
   0.55530    -11.751244
   0.58444    -11.722962
   0.61358    -11.693289
   0.64273    -11.661760
   0.67187    -11.627084
   0.70101    -11.587740
   0.73015    -11.544922
   0.75929    -11.501795
   0.78844    -11.460780
   0.81758    -11.423455
   0.84672    -11.390988
   0.87586    -11.364304
   0.90500    -11.344240
   0.93414    -11.331688
   0.96329    -11.327770
   0.99243    -11.333462
   1.02157    -11.345099
   1.02157    -11.345099
   1.02765    -11.345094
   1.03374    -11.345080
   1.03982    -11.345058
   1.04591    -11.345027
   1.05199    -11.344989
   1.05808    -11.344946
   1.06416    -11.344895
   1.07025    -11.344839
   1.07633    -11.344778
   1.08242    -11.344714
   1.08850    -11.344647
   1.09459    -11.344578
   1.10067    -11.344508
   1.10676    -11.344440
   1.11284    -11.344374
   1.11893    -11.344310
   1.12501    -11.344247
   1.13110    -11.344186
   1.13718    -11.344129
   1.14326    -11.344076
   1.14935    -11.344028
   1.15543    -11.343986
   1.16152    -11.343948
   1.16760    -11.343916
   1.17369    -11.343889
   1.17977    -11.343869
   1.18586    -11.343853
   1.19194    -11.343844
   1.19803    -11.343841
   1.19803    -11.343841
   1.22717    -11.335033
   1.25631    -11.333902
   1.28545    -11.339411
   1.31459    -11.363684
   1.34374    -11.398343
   1.37288    -11.436541
   1.40202    -11.451612
   1.43116    -11.464187
   1.46030    -11.478478
   1.48945    -11.498250
   1.51859    -11.531476
   1.54773    -11.566096
   1.57687    -11.601763
   1.60601    -11.638118
   1.63515    -11.674777
   1.66430    -11.711348
   1.69344    -11.747402
   1.72258    -11.782505
   1.75172    -11.816211
   1.78086    -11.848086
   1.81001    -11.877719
   1.83915    -11.904739
   1.86829    -11.928814
   1.89743    -11.949658
   1.92657    -11.967034
   1.95571    -11.980740
   1.98486    -11.990635
   2.01400    -11.996614
   2.04314    -11.998612
 
# Band-Index    6
   2.04314    -11.765491
   2.01400    -11.763927
   1.98486    -11.759311
   1.95571    -11.751944
   1.92657    -11.742570
   1.89743    -11.732106
   1.86829    -11.720630
   1.83915    -11.707868
   1.81001    -11.693738
   1.78086    -11.678293
   1.75172    -11.661669
   1.72258    -11.644031
   1.69344    -11.625582
   1.66430    -11.606543
   1.63515    -11.587152
   1.60601    -11.567666
   1.57687    -11.548359
   1.54773    -11.529507
   1.51859    -11.511390
   1.48945    -11.494282
   1.46030    -11.466768
   1.43116    -11.437432
   1.40202    -11.410645
   1.37288    -11.386872
   1.34374    -11.366642
   1.31459    -11.350569
   1.28545    -11.336293
   1.25631    -11.323510
   1.22717    -11.331817
   1.19803    -11.343353
   1.19803    -11.343353
   1.19194    -11.343355
   1.18586    -11.343365
   1.17977    -11.343380
   1.17369    -11.343400
   1.16760    -11.343426
   1.16152    -11.343458
   1.15543    -11.343496
   1.14935    -11.343537
   1.14326    -11.343584
   1.13718    -11.343636
   1.13110    -11.343692
   1.12501    -11.343752
   1.11893    -11.343814
   1.11284    -11.343876
   1.10676    -11.343942
   1.10067    -11.344008
   1.09459    -11.344076
   1.08850    -11.344144
   1.08242    -11.344210
   1.07633    -11.344272
   1.07025    -11.344332
   1.06416    -11.344387
   1.05808    -11.344436
   1.05199    -11.344479
   1.04591    -11.344516
   1.03982    -11.344546
   1.03374    -11.344568
   1.02765    -11.344581
   1.02157    -11.344587
   1.02157    -11.344587
   0.99243    -11.332842
   0.96329    -11.327181
   0.93414    -11.331149
   0.90500    -11.343752
   0.87586    -11.363857
   0.84672    -11.390571
   0.81758    -11.423057
   0.78844    -11.460389
   0.75929    -11.501395
   0.73015    -11.544495
   0.70101    -11.587279
   0.67187    -11.626629
   0.64273    -11.661353
   0.61358    -11.692927
   0.58444    -11.722631
   0.55530    -11.750934
   0.52616    -11.777899
   0.49702    -11.803442
   0.46788    -11.827412
   0.43873    -11.849652
   0.40959    -11.870004
   0.38045    -11.888317
   0.35131    -11.904461
   0.32217    -11.918323
   0.29302    -11.929799
   0.26388    -11.938808
   0.23474    -11.945290
   0.20560    -11.949197
   0.17646    -11.950500
   0.17646    -11.950500
   0.17037    -11.946791
   0.16429    -11.942793
   0.15820    -11.938619
   0.15212    -11.934261
   0.14603    -11.929713
   0.13995    -11.924967
   0.13386    -11.920011
   0.12778    -11.914834
   0.12169    -11.909430
   0.11561    -11.903785
   0.10953    -11.897891
   0.10344    -11.891739
   0.09736    -11.885320
   0.09127    -11.878631
   0.08519    -11.871670
   0.07910    -11.864436
   0.07302    -11.856934
   0.06693    -11.849170
   0.06085    -11.841157
   0.05476    -11.832917
   0.04868    -11.824468
   0.04259    -11.815842
   0.03651    -11.807075
   0.03042    -11.798227
   0.02434    -11.789393
   0.01825    -11.780780
   0.01217    -11.772926
   0.00608    -11.767306
   0.00000    -11.765491
 
# Band-Index    7
   0.00000    -11.753163
   0.00608    -11.755168
   0.01217    -11.756848
   0.01825    -11.756910
   0.02434    -11.756159
   0.03042    -11.754931
   0.03651    -11.753345
   0.04259    -11.751456
   0.04868    -11.749301
   0.05476    -11.746904
   0.06085    -11.744290
   0.06693    -11.741483
   0.07302    -11.738500
   0.07910    -11.735361
   0.08519    -11.732084
   0.09127    -11.728687
   0.09736    -11.725187
   0.10344    -11.721598
   0.10953    -11.717935
   0.11561    -11.714213
   0.12169    -11.710446
   0.12778    -11.706643
   0.13386    -11.702816
   0.13995    -11.698978
   0.14603    -11.695138
   0.15212    -11.691309
   0.15820    -11.687496
   0.16429    -11.683709
   0.17037    -11.679958
   0.17646    -11.676400
   0.17646    -11.676400
   0.20560    -11.674859
   0.23474    -11.670249
   0.26388    -11.662621
   0.29302    -11.652047
   0.32217    -11.638644
   0.35131    -11.622558
   0.38045    -11.603982
   0.40959    -11.583130
   0.43873    -11.560267
   0.46788    -11.535689
   0.49702    -11.509735
   0.52616    -11.482771
   0.55530    -11.455188
   0.58444    -11.427369
   0.61358    -11.399696
   0.64273    -11.372525
   0.67187    -11.346179
   0.70101    -11.320949
   0.73015    -11.297117
   0.75929    -11.274993
   0.78844    -11.254978
   0.81758    -11.237601
   0.84672    -11.223560
   0.87586    -11.213599
   0.90500    -11.208218
   0.93414    -11.207161
   0.96329    -11.209061
   0.99243    -11.211627
   1.02157    -11.212754
   1.02157    -11.212754
   1.02765    -11.212746
   1.03374    -11.212732
   1.03982    -11.212706
   1.04591    -11.212669
   1.05199    -11.212625
   1.05808    -11.212574
   1.06416    -11.212512
   1.07025    -11.212443
   1.07633    -11.212368
   1.08242    -11.212285
   1.08850    -11.212197
