 #  energy  xx  yy  zz  xy  xz  yz
         0.0000         2.7989         2.3324         1.4142         0.0000         0.0000         0.0000
         0.0007         2.7996         2.3331         1.4142         0.0000         0.0000         0.0000
         0.0013         2.8003         2.3337         1.4142         0.0000         0.0000         0.0000
         0.0020         2.8010         2.3344         1.4142         0.0000         0.0000         0.0000
         0.0027         2.8017         2.3350         1.4142         0.0000         0.0000         0.0000
         0.0033         2.8024         2.3357         1.4142         0.0000         0.0000         0.0000
         0.0040         2.8032         2.3363         1.4142         0.0000         0.0000         0.0000
         0.0047         2.8039         2.3370         1.4142         0.0000         0.0000         0.0000
         0.0053         2.8046         2.3376         1.4142         0.0000         0.0000         0.0000
         0.0060         2.8053         2.3383         1.4142         0.0000         0.0000         0.0000
         0.0067         2.8060         2.3389         1.4142         0.0000         0.0000         0.0000
         0.0073         2.8067         2.3396         1.4142         0.0000         0.0000         0.0000
         0.0080         2.8075         2.3403         1.4142         0.0000         0.0000         0.0000
         0.0087         2.8082         2.3409         1.4142         0.0000         0.0000         0.0000
         0.0093         2.8089         2.3416         1.4142         0.0000         0.0000         0.0000
         0.0100         2.8096         2.3423         1.4142         0.0000         0.0000         0.0000
         0.0107         2.8104         2.3429         1.4142         0.0000         0.0000         0.0000
         0.0113         2.8111         2.3436         1.4142         0.0000         0.0000         0.0000
         0.0120         2.8118         2.3443         1.4142         0.0000         0.0000         0.0000
         0.0127         2.8126         2.3449         1.4142         0.0000         0.0000         0.0000
         0.0133         2.8133         2.3456         1.4142         0.0000         0.0000         0.0000
         0.0140         2.8140         2.3463         1.4142         0.0000         0.0000         0.0000
         0.0147         2.8148         2.3470         1.4142         0.0000         0.0000         0.0000
         0.0153         2.8155         2.3476         1.4142         0.0000         0.0000         0.0000
         0.0160         2.8163         2.3483         1.4142         0.0000         0.0000         0.0000
         0.0167         2.8170         2.3490         1.4142         0.0000         0.0000         0.0000
         0.0173         2.8178         2.3497         1.4142         0.0000         0.0000         0.0000
         0.0180         2.8185         2.3504         1.4142         0.0000         0.0000         0.0000
         0.0187         2.8193         2.3511         1.4142         0.0000         0.0000         0.0000
         0.0193         2.8200         2.3518         1.4142         0.0000         0.0000         0.0000
         0.0200         2.8208         2.3525         1.4142         0.0000         0.0000         0.0000
         0.0207         2.8215         2.3532         1.4142         0.0000         0.0000         0.0000
         0.0213         2.8223         2.3539         1.4142         0.0000         0.0000         0.0000
         0.0220         2.8231         2.3546         1.4142         0.0000         0.0000         0.0000
         0.0227         2.8238         2.3553         1.4142         0.0000         0.0000         0.0000
         0.0233         2.8246         2.3560         1.4142         0.0000         0.0000         0.0000
         0.0240         2.8254         2.3567         1.4142         0.0000         0.0000         0.0000
         0.0247         2.8261         2.3574         1.4142         0.0000         0.0000         0.0000
         0.0253         2.8269         2.3581         1.4142         0.0000         0.0000         0.0000
         0.0260         2.8277         2.3588         1.4142         0.0000         0.0000         0.0000
         0.0267         2.8285         2.3595         1.4142         0.0000         0.0000         0.0000
         0.0273         2.8293         2.3602         1.4142         0.0000         0.0000         0.0000
         0.0280         2.8300         2.3609         1.4142         0.0000         0.0000         0.0000
         0.0287         2.8308         2.3616         1.4142         0.0000         0.0000         0.0000
         0.0293         2.8316         2.3624         1.4142         0.0000         0.0000         0.0000
         0.0300         2.8324         2.3631         1.4142         0.0000         0.0000         0.0000
         0.0307         2.8332         2.3638         1.4142         0.0000         0.0000         0.0000
         0.0313         2.8340         2.3645         1.4142         0.0000         0.0000         0.0000
         0.0320         2.8348         2.3653         1.4142         0.0000         0.0000         0.0000
         0.0327         2.8356         2.3660         1.4142         0.0000         0.0000         0.0000
         0.0333         2.8364         2.3667         1.4142         0.0000         0.0000         0.0000
         0.0340         2.8372         2.3674         1.4142         0.0000         0.0000         0.0000
         0.0347         2.8380         2.3682         1.4142         0.0000         0.0000         0.0000
         0.0353         2.8388         2.3689         1.4142         0.0000         0.0000         0.0000
         0.0360         2.8396         2.3697         1.4142         0.0000         0.0000         0.0000
         0.0367         2.8405         2.3704         1.4142         0.0000         0.0000         0.0000
         0.0373         2.8413         2.3711         1.4142         0.0000         0.0000         0.0000
         0.0380         2.8421         2.3719         1.4142         0.0000         0.0000         0.0000
         0.0387         2.8429         2.3726         1.4142         0.0000         0.0000         0.0000
         0.0393         2.8437         2.3734         1.4142         0.0000         0.0000         0.0000
         0.0400         2.8446         2.3741         1.4142         0.0000         0.0000         0.0000
         0.0407         2.8454         2.3749         1.4142         0.0000         0.0000         0.0000
         0.0413         2.8462         2.3756         1.4142         0.0000         0.0000         0.0000
         0.0420         2.8471         2.3764         1.4142         0.0000         0.0000         0.0000
         0.0427         2.8479         2.3772         1.4142         0.0000         0.0000         0.0000
         0.0433         2.8487         2.3779         1.4142         0.0000         0.0000         0.0000
         0.0440         2.8496         2.3787         1.4142         0.0000         0.0000         0.0000
         0.0447         2.8504         2.3795         1.4142         0.0000         0.0000         0.0000
         0.0453         2.8513         2.3802         1.4142         0.0000         0.0000         0.0000
         0.0460         2.8521         2.3810         1.4142         0.0000         0.0000         0.0000
         0.0467         2.8530         2.3818         1.4142         0.0000         0.0000         0.0000
         0.0473         2.8538         2.3825         1.4142         0.0000         0.0000         0.0000
         0.0480         2.8547         2.3833         1.4142         0.0000         0.0000         0.0000
         0.0487         2.8555         2.3841         1.4142         0.0000         0.0000         0.0000
         0.0493         2.8564         2.3849         1.4142         0.0000         0.0000         0.0000
         0.0500         2.8573         2.3857         1.4142         0.0000         0.0000         0.0000
         0.0507         2.8581         2.3864         1.4142         0.0000         0.0000         0.0000
         0.0513         2.8590         2.3872         1.4142         0.0000         0.0000         0.0000
         0.0520         2.8599         2.3880         1.4142         0.0000         0.0000         0.0000
         0.0527         2.8607         2.3888         1.4142         0.0000         0.0000         0.0000
         0.0533         2.8616         2.3896         1.4142         0.0000         0.0000         0.0000
         0.0540         2.8625         2.3904         1.4142         0.0000         0.0000         0.0000
         0.0547         2.8634         2.3912         1.4142         0.0000         0.0000         0.0000
         0.0553         2.8643         2.3920         1.4142         0.0000         0.0000         0.0000
         0.0560         2.8651         2.3928         1.4142         0.0000         0.0000         0.0000
         0.0567         2.8660         2.3936         1.4142         0.0000         0.0000         0.0000
         0.0573         2.8669         2.3944         1.4142         0.0000         0.0000         0.0000
         0.0580         2.8678         2.3952         1.4142         0.0000         0.0000         0.0000
         0.0587         2.8687         2.3960         1.4142         0.0000         0.0000         0.0000
         0.0593         2.8696         2.3969         1.4142         0.0000         0.0000         0.0000
         0.0600         2.8705         2.3977         1.4142         0.0000         0.0000         0.0000
         0.0607         2.8714         2.3985         1.4142         0.0000         0.0000         0.0000
         0.0613         2.8723         2.3993         1.4142         0.0000         0.0000         0.0000
         0.0620         2.8732         2.4001         1.4142         0.0000         0.0000         0.0000
         0.0627         2.8741         2.4010         1.4142         0.0000         0.0000         0.0000
         0.0633         2.8751         2.4018         1.4142         0.0000         0.0000         0.0000
         0.0640         2.8760         2.4026         1.4142         0.0000         0.0000         0.0000
         0.0647         2.8769         2.4035         1.4142         0.0000         0.0000         0.0000
         0.0653         2.8778         2.4043         1.4142         0.0000         0.0000         0.0000
         0.0660         2.8787         2.4051         1.4142         0.0000         0.0000         0.0000
         0.0667         2.8797         2.4060         1.4142         0.0000         0.0000         0.0000
         0.0673         2.8806         2.4068         1.4142         0.0000         0.0000         0.0000
         0.0680         2.8815         2.4077         1.4142         0.0000         0.0000         0.0000
         0.0687         2.8825         2.4085         1.4142         0.0000         0.0000         0.0000
         0.0693         2.8834         2.4093         1.4142         0.0000         0.0000         0.0000
         0.0700         2.8843         2.4102         1.4142         0.0000         0.0000         0.0000
         0.0707         2.8853         2.4111         1.4142         0.0000         0.0000         0.0000
         0.0713         2.8862         2.4119         1.4142         0.0000         0.0000         0.0000
         0.0720         2.8872         2.4128         1.4142         0.0000         0.0000         0.0000
         0.0727         2.8881         2.4136         1.4142         0.0000         0.0000         0.0000
         0.0733         2.8891         2.4145         1.4142         0.0000         0.0000         0.0000
         0.0740         2.8900         2.4153         1.4142         0.0000         0.0000         0.0000
         0.0747         2.8910         2.4162         1.4142         0.0000         0.0000         0.0000
         0.0753         2.8919         2.4171         1.4142         0.0000         0.0000         0.0000
         0.0760         2.8929         2.4179         1.4142         0.0000         0.0000         0.0000
         0.0767         2.8938         2.4188         1.4142         0.0000         0.0000         0.0000
         0.0773         2.8948         2.4197         1.4142         0.0000         0.0000         0.0000
         0.0780         2.8958         2.4206         1.4142         0.0000         0.0000         0.0000
         0.0787         2.8967         2.4214         1.4142         0.0000         0.0000         0.0000
         0.0793         2.8977         2.4223         1.4142         0.0000         0.0000         0.0000
         0.0800         2.8987         2.4232         1.4142         0.0000         0.0000         0.0000
         0.0807         2.8996         2.4241         1.4142         0.0000         0.0000         0.0000
         0.0813         2.9006         2.4250         1.4142         0.0000         0.0000         0.0000
         0.0820         2.9016         2.4259         1.4142         0.0000         0.0000         0.0000
         0.0827         2.9026         2.4268         1.4142         0.0000         0.0000         0.0000
         0.0833         2.9036         2.4276         1.4142         0.0000         0.0000         0.0000
         0.0840         2.9045         2.4285         1.4142         0.0000         0.0000         0.0000
         0.0847         2.9055         2.4294         1.4142         0.0000         0.0000         0.0000
         0.0853         2.9065         2.4303         1.4142         0.0000         0.0000         0.0000
         0.0860         2.9075         2.4312         1.4142         0.0000         0.0000         0.0000
         0.0867         2.9085         2.4321         1.4142         0.0000         0.0000         0.0000
         0.0873         2.9095         2.4330         1.4142         0.0000         0.0000         0.0000
         0.0880         2.9104         2.4339         1.4142         0.0000         0.0000         0.0000
         0.0887         2.9114         2.4348         1.4142         0.0000         0.0000         0.0000
         0.0893         2.9124         2.4357         1.4142         0.0000         0.0000         0.0000
         0.0900         2.9134         2.4366         1.4142         0.0000         0.0000         0.0000
         0.0907         2.9144         2.4376         1.4142         0.0000         0.0000         0.0000
         0.0913         2.9154         2.4385         1.4142         0.0000         0.0000         0.0000
         0.0920         2.9164         2.4394         1.4142         0.0000         0.0000         0.0000
         0.0927         2.9174         2.4403         1.4142         0.0000         0.0000         0.0000
         0.0933         2.9184         2.4412         1.4142         0.0000         0.0000         0.0000
         0.0940         2.9194         2.4421         1.4142         0.0000         0.0000         0.0000
         0.0947         2.9204         2.4430         1.4142         0.0000         0.0000         0.0000
         0.0953         2.9214         2.4440         1.4142         0.0000         0.0000         0.0000
         0.0960         2.9224         2.4449         1.4142         0.0000         0.0000         0.0000
         0.0967         2.9234         2.4458         1.4142         0.0000         0.0000         0.0000
         0.0973         2.9244         2.4467         1.4142         0.0000         0.0000         0.0000
         0.0980         2.9254         2.4476         1.4142         0.0000         0.0000         0.0000
         0.0987         2.9264         2.4485         1.4142         0.0000         0.0000         0.0000
         0.0993         2.9274         2.4495         1.4142         0.0000         0.0000         0.0000
         0.1000         2.9284         2.4504         1.4142         0.0000         0.0000         0.0000
         0.1007         2.9294         2.4513         1.4142         0.0000         0.0000         0.0000
         0.1013         2.9304         2.4522         1.4142         0.0000         0.0000         0.0000
         0.1020         2.9313         2.4532         1.4142         0.0000         0.0000         0.0000
         0.1027         2.9323         2.4541         1.4142         0.0000         0.0000         0.0000
         0.1033         2.9333         2.4550         1.4142         0.0000         0.0000         0.0000
         0.1040         2.9343         2.4559         1.4142         0.0000         0.0000         0.0000
         0.1047         2.9353         2.4568         1.4142         0.0000         0.0000         0.0000
         0.1053         2.9363         2.4578         1.4142         0.0000         0.0000         0.0000
         0.1060         2.9373         2.4587         1.4142         0.0000         0.0000         0.0000
         0.1067         2.9383         2.4596         1.4142         0.0000         0.0000         0.0000
         0.1073         2.9393         2.4605         1.4142         0.0000         0.0000         0.0000
         0.1080         2.9403         2.4614         1.4142         0.0000         0.0000         0.0000
         0.1087         2.9413         2.4623         1.4142         0.0000         0.0000         0.0000
         0.1093         2.9422         2.4633         1.4142         0.0000         0.0000         0.0000
         0.1100         2.9432         2.4642         1.4142         0.0000         0.0000         0.0000
         0.1107         2.9442         2.4651         1.4142         0.0000         0.0000         0.0000
         0.1113         2.9452         2.4660         1.4142         0.0000         0.0000         0.0000
         0.1120         2.9462         2.4669         1.4142         0.0000         0.0000         0.0000
         0.1127         2.9472         2.4678         1.4142         0.0000         0.0000         0.0000
         0.1133         2.9481         2.4687         1.4142         0.0000         0.0000         0.0000
         0.1140         2.9491         2.4696         1.4142         0.0000         0.0000         0.0000
         0.1147         2.9501         2.4705         1.4142         0.0000         0.0000         0.0000
         0.1153         2.9510         2.4714         1.4142         0.0000         0.0000         0.0000
         0.1160         2.9520         2.4723         1.4142         0.0000         0.0000         0.0000
         0.1167         2.9530         2.4732         1.4142         0.0000         0.0000         0.0000
         0.1173         2.9539         2.4741         1.4142         0.0000         0.0000         0.0000
         0.1180         2.9549         2.4749         1.4142         0.0000         0.0000         0.0000
         0.1187         2.9559         2.4758         1.4142         0.0000         0.0000         0.0000
         0.1193         2.9568         2.4767         1.4142         0.0000         0.0000         0.0000
         0.1200         2.9578         2.4775         1.4142         0.0000         0.0000         0.0000
         0.1207         2.9587         2.4784         1.4142         0.0000         0.0000         0.0000
         0.1213         2.9597         2.4793         1.4142         0.0000         0.0000         0.0000
         0.1220         2.9607         2.4801         1.4142         0.0000         0.0000         0.0000
         0.1227         2.9616         2.4810         1.4142         0.0000         0.0000         0.0000
         0.1233         2.9626         2.4818         1.4142         0.0000         0.0000         0.0000
         0.1240         2.9635         2.4826         1.4142         0.0000         0.0000         0.0000
         0.1247         2.9645         2.4835         1.4142         0.0000         0.0000         0.0000
