 #  energy  xx  yy  zz  xy  xz  yz
         0.0000         2.6199         2.1923         1.4142         0.0000         0.0000         0.0000
         0.0007         2.6203         2.1927         1.4142         0.0000         0.0000         0.0000
         0.0013         2.6207         2.1931         1.4142         0.0000         0.0000         0.0000
         0.0020         2.6211         2.1935         1.4142         0.0000         0.0000         0.0000
         0.0027         2.6214         2.1939         1.4142         0.0000         0.0000         0.0000
         0.0033         2.6218         2.1943         1.4142         0.0000         0.0000         0.0000
         0.0040         2.6222         2.1947         1.4142         0.0000         0.0000         0.0000
         0.0047         2.6225         2.1951         1.4142         0.0000         0.0000         0.0000
         0.0053         2.6229         2.1955         1.4142         0.0000         0.0000         0.0000
         0.0060         2.6233         2.1959         1.4142         0.0000         0.0000         0.0000
         0.0067         2.6237         2.1963         1.4142         0.0000         0.0000         0.0000
         0.0073         2.6240         2.1967         1.4142         0.0000         0.0000         0.0000
         0.0080         2.6244         2.1971         1.4142         0.0000         0.0000         0.0000
         0.0087         2.6248         2.1975         1.4142         0.0000         0.0000         0.0000
         0.0093         2.6252         2.1978         1.4142         0.0000         0.0000         0.0000
         0.0100         2.6256         2.1982         1.4142         0.0000         0.0000         0.0000
         0.0107         2.6259         2.1986         1.4142         0.0000         0.0000         0.0000
         0.0113         2.6263         2.1990         1.4142         0.0000         0.0000         0.0000
         0.0120         2.6267         2.1994         1.4142         0.0000         0.0000         0.0000
         0.0127         2.6271         2.1998         1.4142         0.0000         0.0000         0.0000
         0.0133         2.6274         2.2002         1.4142         0.0000         0.0000         0.0000
         0.0140         2.6278         2.2006         1.4142         0.0000         0.0000         0.0000
         0.0147         2.6282         2.2010         1.4142         0.0000         0.0000         0.0000
         0.0153         2.6286         2.2015         1.4142         0.0000         0.0000         0.0000
         0.0160         2.6290         2.2019         1.4142         0.0000         0.0000         0.0000
         0.0167         2.6293         2.2023         1.4142         0.0000         0.0000         0.0000
         0.0173         2.6297         2.2027         1.4142         0.0000         0.0000         0.0000
         0.0180         2.6301         2.2031         1.4142         0.0000         0.0000         0.0000
         0.0187         2.6305         2.2035         1.4142         0.0000         0.0000         0.0000
         0.0193         2.6309         2.2039         1.4142         0.0000         0.0000         0.0000
         0.0200         2.6313         2.2043         1.4142         0.0000         0.0000         0.0000
         0.0207         2.6316         2.2047         1.4142         0.0000         0.0000         0.0000
         0.0213         2.6320         2.2051         1.4142         0.0000         0.0000         0.0000
         0.0220         2.6324         2.2055         1.4142         0.0000         0.0000         0.0000
         0.0227         2.6328         2.2059         1.4142         0.0000         0.0000         0.0000
         0.0233         2.6332         2.2063         1.4142         0.0000         0.0000         0.0000
         0.0240         2.6336         2.2067         1.4142         0.0000         0.0000         0.0000
         0.0247         2.6340         2.2072         1.4142         0.0000         0.0000         0.0000
         0.0253         2.6343         2.2076         1.4142         0.0000         0.0000         0.0000
         0.0260         2.6347         2.2080         1.4142         0.0000         0.0000         0.0000
         0.0267         2.6351         2.2084         1.4142         0.0000         0.0000         0.0000
         0.0273         2.6355         2.2088         1.4142         0.0000         0.0000         0.0000
         0.0280         2.6359         2.2092         1.4142         0.0000         0.0000         0.0000
         0.0287         2.6363         2.2096         1.4142         0.0000         0.0000         0.0000
         0.0293         2.6367         2.2101         1.4142         0.0000         0.0000         0.0000
         0.0300         2.6371         2.2105         1.4142         0.0000         0.0000         0.0000
         0.0307         2.6374         2.2109         1.4142         0.0000         0.0000         0.0000
         0.0313         2.6378         2.2113         1.4142         0.0000         0.0000         0.0000
         0.0320         2.6382         2.2117         1.4142         0.0000         0.0000         0.0000
         0.0327         2.6386         2.2121         1.4142         0.0000         0.0000         0.0000
         0.0333         2.6390         2.2126         1.4142         0.0000         0.0000         0.0000
         0.0340         2.6394         2.2130         1.4142         0.0000         0.0000         0.0000
         0.0347         2.6398         2.2134         1.4142         0.0000         0.0000         0.0000
         0.0353         2.6402         2.2138         1.4142         0.0000         0.0000         0.0000
         0.0360         2.6406         2.2143         1.4142         0.0000         0.0000         0.0000
         0.0367         2.6410         2.2147         1.4142         0.0000         0.0000         0.0000
         0.0373         2.6414         2.2151         1.4142         0.0000         0.0000         0.0000
         0.0380         2.6418         2.2155         1.4142         0.0000         0.0000         0.0000
         0.0387         2.6422         2.2159         1.4142         0.0000         0.0000         0.0000
         0.0393         2.6426         2.2164         1.4142         0.0000         0.0000         0.0000
         0.0400         2.6430         2.2168         1.4142         0.0000         0.0000         0.0000
         0.0407         2.6434         2.2172         1.4142         0.0000         0.0000         0.0000
         0.0413         2.6437         2.2177         1.4142         0.0000         0.0000         0.0000
         0.0420         2.6441         2.2181         1.4142         0.0000         0.0000         0.0000
         0.0427         2.6445         2.2185         1.4142         0.0000         0.0000         0.0000
         0.0433         2.6449         2.2189         1.4142         0.0000         0.0000         0.0000
         0.0440         2.6453         2.2194         1.4142         0.0000         0.0000         0.0000
         0.0447         2.6457         2.2198         1.4142         0.0000         0.0000         0.0000
         0.0453         2.6461         2.2202         1.4142         0.0000         0.0000         0.0000
         0.0460         2.6465         2.2207         1.4142         0.0000         0.0000         0.0000
         0.0467         2.6469         2.2211         1.4142         0.0000         0.0000         0.0000
         0.0473         2.6473         2.2215         1.4142         0.0000         0.0000         0.0000
         0.0480         2.6477         2.2220         1.4142         0.0000         0.0000         0.0000
         0.0487         2.6481         2.2224         1.4142         0.0000         0.0000         0.0000
         0.0493         2.6486         2.2229         1.4142         0.0000         0.0000         0.0000
         0.0500         2.6490         2.2233         1.4142         0.0000         0.0000         0.0000
         0.0507         2.6494         2.2237         1.4142         0.0000         0.0000         0.0000
         0.0513         2.6498         2.2242         1.4142         0.0000         0.0000         0.0000
         0.0520         2.6502         2.2246         1.4142         0.0000         0.0000         0.0000
         0.0527         2.6506         2.2251         1.4142         0.0000         0.0000         0.0000
         0.0533         2.6510         2.2255         1.4142         0.0000         0.0000         0.0000
         0.0540         2.6514         2.2259         1.4142         0.0000         0.0000         0.0000
         0.0547         2.6518         2.2264         1.4142         0.0000         0.0000         0.0000
         0.0553         2.6522         2.2268         1.4142         0.0000         0.0000         0.0000
         0.0560         2.6526         2.2273         1.4142         0.0000         0.0000         0.0000
         0.0567         2.6530         2.2277         1.4142         0.0000         0.0000         0.0000
         0.0573         2.6534         2.2282         1.4142         0.0000         0.0000         0.0000
         0.0580         2.6538         2.2286         1.4142         0.0000         0.0000         0.0000
         0.0587         2.6542         2.2291         1.4142         0.0000         0.0000         0.0000
         0.0593         2.6547         2.2295         1.4142         0.0000         0.0000         0.0000
         0.0600         2.6551         2.2300         1.4142         0.0000         0.0000         0.0000
         0.0607         2.6555         2.2304         1.4142         0.0000         0.0000         0.0000
         0.0613         2.6559         2.2309         1.4142         0.0000         0.0000         0.0000
         0.0620         2.6563         2.2313         1.4142         0.0000         0.0000         0.0000
         0.0627         2.6567         2.2318         1.4142         0.0000         0.0000         0.0000
         0.0633         2.6571         2.2322         1.4142         0.0000         0.0000         0.0000
         0.0640         2.6575         2.2327         1.4142         0.0000         0.0000         0.0000
         0.0647         2.6580         2.2331         1.4142         0.0000         0.0000         0.0000
         0.0653         2.6584         2.2336         1.4142         0.0000         0.0000         0.0000
         0.0660         2.6588         2.2340         1.4142         0.0000         0.0000         0.0000
         0.0667         2.6592         2.2345         1.4142         0.0000         0.0000         0.0000
         0.0673         2.6596         2.2349         1.4142         0.0000         0.0000         0.0000
         0.0680         2.6600         2.2354         1.4142         0.0000         0.0000         0.0000
         0.0687         2.6604         2.2359         1.4142         0.0000         0.0000         0.0000
         0.0693         2.6609         2.2363         1.4142         0.0000         0.0000         0.0000
         0.0700         2.6613         2.2368         1.4142         0.0000         0.0000         0.0000
         0.0707         2.6617         2.2372         1.4142         0.0000         0.0000         0.0000
         0.0713         2.6621         2.2377         1.4142         0.0000         0.0000         0.0000
         0.0720         2.6625         2.2382         1.4142         0.0000         0.0000         0.0000
         0.0727         2.6630         2.2386         1.4142         0.0000         0.0000         0.0000
         0.0733         2.6634         2.2391         1.4142         0.0000         0.0000         0.0000
         0.0740         2.6638         2.2396         1.4142         0.0000         0.0000         0.0000
         0.0747         2.6642         2.2400         1.4142         0.0000         0.0000         0.0000
         0.0753         2.6646         2.2405         1.4142         0.0000         0.0000         0.0000
         0.0760         2.6651         2.2410         1.4142         0.0000         0.0000         0.0000
         0.0767         2.6655         2.2414         1.4142         0.0000         0.0000         0.0000
         0.0773         2.6659         2.2419         1.4142         0.0000         0.0000         0.0000
         0.0780         2.6663         2.2424         1.4142         0.0000         0.0000         0.0000
         0.0787         2.6668         2.2429         1.4142         0.0000         0.0000         0.0000
         0.0793         2.6672         2.2433         1.4142         0.0000         0.0000         0.0000
         0.0800         2.6676         2.2438         1.4142         0.0000         0.0000         0.0000
         0.0807         2.6680         2.2443         1.4142         0.0000         0.0000         0.0000
         0.0813         2.6685         2.2448         1.4142         0.0000         0.0000         0.0000
         0.0820         2.6689         2.2452         1.4142         0.0000         0.0000         0.0000
         0.0827         2.6693         2.2457         1.4142         0.0000         0.0000         0.0000
         0.0833         2.6698         2.2462         1.4142         0.0000         0.0000         0.0000
         0.0840         2.6702         2.2467         1.4142         0.0000         0.0000         0.0000
         0.0847         2.6706         2.2471         1.4142         0.0000         0.0000         0.0000
         0.0853         2.6710         2.2476         1.4142         0.0000         0.0000         0.0000
         0.0860         2.6715         2.2481         1.4142         0.0000         0.0000         0.0000
         0.0867         2.6719         2.2486         1.4142         0.0000         0.0000         0.0000
         0.0873         2.6723         2.2491         1.4142         0.0000         0.0000         0.0000
         0.0880         2.6728         2.2496         1.4142         0.0000         0.0000         0.0000
         0.0887         2.6732         2.2500         1.4142         0.0000         0.0000         0.0000
         0.0893         2.6736         2.2505         1.4142         0.0000         0.0000         0.0000
         0.0900         2.6741         2.2510         1.4142         0.0000         0.0000         0.0000
         0.0907         2.6745         2.2515         1.4142         0.0000         0.0000         0.0000
         0.0913         2.6749         2.2520         1.4142         0.0000         0.0000         0.0000
         0.0920         2.6754         2.2525         1.4142         0.0000         0.0000         0.0000
         0.0927         2.6758         2.2530         1.4142         0.0000         0.0000         0.0000
         0.0933         2.6763         2.2535         1.4142         0.0000         0.0000         0.0000
         0.0940         2.6767         2.2540         1.4142         0.0000         0.0000         0.0000
         0.0947         2.6771         2.2544         1.4142         0.0000         0.0000         0.0000
         0.0953         2.6776         2.2549         1.4142         0.0000         0.0000         0.0000
         0.0960         2.6780         2.2554         1.4142         0.0000         0.0000         0.0000
         0.0967         2.6785         2.2559         1.4142         0.0000         0.0000         0.0000
         0.0973         2.6789         2.2564         1.4142         0.0000         0.0000         0.0000
         0.0980         2.6793         2.2569         1.4142         0.0000         0.0000         0.0000
         0.0987         2.6798         2.2574         1.4142         0.0000         0.0000         0.0000
         0.0993         2.6802         2.2579         1.4142         0.0000         0.0000         0.0000
         0.1000         2.6807         2.2584         1.4142         0.0000         0.0000         0.0000
         0.1007         2.6811         2.2589         1.4142         0.0000         0.0000         0.0000
         0.1013         2.6816         2.2594         1.4142         0.0000         0.0000         0.0000
         0.1020         2.6820         2.2599         1.4142         0.0000         0.0000         0.0000
         0.1027         2.6824         2.2604         1.4142         0.0000         0.0000         0.0000
         0.1033         2.6829         2.2610         1.4142         0.0000         0.0000         0.0000
         0.1040         2.6833         2.2615         1.4142         0.0000         0.0000         0.0000
         0.1047         2.6838         2.2620         1.4142         0.0000         0.0000         0.0000
         0.1053         2.6842         2.2625         1.4142         0.0000         0.0000         0.0000
         0.1060         2.6847         2.2630         1.4142         0.0000         0.0000         0.0000
         0.1067         2.6851         2.2635         1.4142         0.0000         0.0000         0.0000
         0.1073         2.6856         2.2640         1.4142         0.0000         0.0000         0.0000
         0.1080         2.6860         2.2645         1.4142         0.0000         0.0000         0.0000
         0.1087         2.6865         2.2650         1.4142         0.0000         0.0000         0.0000
         0.1093         2.6869         2.2656         1.4142         0.0000         0.0000         0.0000
         0.1100         2.6874         2.2661         1.4142         0.0000         0.0000         0.0000
         0.1107         2.6878         2.2666         1.4142         0.0000         0.0000         0.0000
         0.1113         2.6883         2.2671         1.4142         0.0000         0.0000         0.0000
         0.1120         2.6887         2.2676         1.4142         0.0000         0.0000         0.0000
         0.1127         2.6892         2.2681         1.4142         0.0000         0.0000         0.0000
         0.1133         2.6897         2.2687         1.4142         0.0000         0.0000         0.0000
         0.1140         2.6901         2.2692         1.4142         0.0000         0.0000         0.0000
         0.1147         2.6906         2.2697         1.4142         0.0000         0.0000         0.0000
         0.1153         2.6910         2.2702         1.4142         0.0000         0.0000         0.0000
         0.1160         2.6915         2.2708         1.4142         0.0000         0.0000         0.0000
         0.1167         2.6919         2.2713         1.4142         0.0000         0.0000         0.0000
         0.1173         2.6924         2.2718         1.4142         0.0000         0.0000         0.0000
         0.1180         2.6929         2.2724         1.4142         0.0000         0.0000         0.0000
         0.1187         2.6933         2.2729         1.4142         0.0000         0.0000         0.0000
         0.1193         2.6938         2.2734         1.4142         0.0000         0.0000         0.0000
         0.1200         2.6943         2.2739         1.4142         0.0000         0.0000         0.0000
         0.1207         2.6947         2.2745         1.4142         0.0000         0.0000         0.0000
         0.1213         2.6952         2.2750         1.4142         0.0000         0.0000         0.0000
         0.1220         2.6956         2.2755         1.4142         0.0000         0.0000         0.0000
         0.1227         2.6961         2.2761         1.4142         0.0000         0.0000         0.0000
         0.1233         2.6966         2.2766         1.4142         0.0000         0.0000         0.0000
         0.1240         2.6970         2.2772         1.4142         0.0000         0.0000         0.0000
         0.1247         2.6975         2.2777         1.4142         0.0000         0.0000         0.0000
